   32   44   20   39   28   92   19   24   25   18
   98   13    9   94   79   42   48   33   73   22
   29   35   25   88   99   97   90   65   59   32
   45    9   65   21   30   24   46   16    4   56
   12   81   19   41   57   78   53   44   39    7
    2   45   33   87   87   87   87   24   15   54
   21   75   49   26   90   45   84   98   16   86
   32   96   99   25   41   36   10    9   35   72
   71    3   85   63   75   67   75    9   83   86
   39   72   62    6   11   33    7   46   33    6
   15   94   45   81   63   33   16    1   77   22
   58   60   25   68    5   46   44   20   49    5
   69   37   41   74   79   23   76   48   59   33
   93   72   14   40   21   37   29   45   58   66
    5   26    2   18   58   91   54   84   15    4
   57   19   47   99   33   78   79   64   12   86
   64   52   72   56   74   19   53   18   40   26
   25    5   11   10   55   65   72   91   73    2
   29   16   39  100   55   92   51   61   99   54
    3   39   85   62   75   53   15   13    9   75
   11   83   96   66   58  100   36   29   93   32
   68   91   49   76   34   14   79   95    4   30
   19   37   76   83   18   28    1   43   76   80
   29   56   68   41   36   90   99   49   46   70
   23   55   58   88   84   72   35   63   62   48
   31   39   82   17   12   30   71   29   78   76
   93   70    4   93   25   59   15   29   29   65
   73    5    4   11   80   61   77   92   54   90
   55   24   53   72   48   42   35   80  100   85
   67   46   15   73   16   79   32   97   83   15
    9   32   89  100   90   53   76   49    5   64
   18   27   72    6   32    7   22   48   25   78
   49    1   67   25   46   54   75   68   68   24
   88   83   74    5   90   93   83   16   53   69
   15   67   93    2   28   30   38   54   88   51
   37   75   78   24   50   71   69   17   42   66
   52   83   28   94   45   78   19    7    1   76
   51   61   52   27   69   79   34   85   70   94
   41   86   68   31   68   71   72   94   93   42
   96   48   14   99   49   91   53   86   21   54
   34   94   58   52   28   50   47   10   32   75
    5    2   34   51   86   50   49   69   86   54
   49   81   26   26    9   83   82   80   23  100
   32   26   85   66   75   19   86   10   71   60
   25   87   98   51   34  100   63   20   46   66
   63   13   86   50   25   28    9   96   68   34
   67   82   68   35    9   34   61   66   10   33
   56    8   53   25   85   13   78   87   19   54
   83   55   79   64   27   81   99   22   86   88
   29   28   44   22   68   30   88    4   97   88
   65   64   84   62   64    1   78   79   77   66
   65   46   72   68   15   34   33   45    4   89
   16   58   27   84   82   93   70   13   93    4
   81   70   95   43   25    2   94   40   37   98
   16   34   14   62   62   79   41   29   11   64
   22   39   83   95    9   47   98   11   28   46
   32   53   91   11   51   66   80   40    7   38
   19   58    6   31   82   97   91   46    8   86
   86   40   63   62   86   85   60    4   44    8
   39   88    4   43   59   25   17   93   60   56
   79   89   52   50   80   85   61   79   88   77
   41    9   81   39   84   17   27   44   19   92
   59   80   38   87   67   15   27   33   82   52
   79   47   82   16   38   35   46   16   39   24
   78   63   86   89   41   79    9   40   25   11
   62   59   32   27   23   95   68   88   89   82
   42   86   27   51  100   64   95   64   27   32
   79   92   35   36    1   95   14   41   65   55
   12   42   17   37   70   89   80   97   43   98
   20   38   60   53   65   10    9   59   10   83
   11   89   62   12   45   25    9   22   47    5
   38   55   33   98    9   41   90   54   46   91
   28   38   12   14   53  100   57   11   33   69
   87   22   43   82   68   78    6   49   95   72
   28   31   34   22   38   22   61   95   59   73
   33    7   39   56   10   90   40   54    2   98
   68   24    7   21   19   13   32   40  100   61
   41   27   34   67   58   26    4   82   81   85
   10   48   60   24  100   98   81   85    6   52
   78   72   70   15   32   49   18   24   48   45
   97   15    2   27   33   85   98   74   59   47
   81   69   46   25   84   54   15   70   49  100
   91    6   19   75   31   19   81   94    4   33
   82   85   71   54   42   37   96   12   77   62
   95   65   58   92   36   49    5    1   16   32
   58   98   41   25   54   41    3   74   75   20
   58    6   87   56   20   56   30   45   60   22
   77   98   20   90   39   41   43   92   43   18
   63   23   53  100   71   67   98   29   63   88
   24   66   64   48   83   95   86   93   13   19
   44   81  100   26   43   13   33   61   32   39
   30   43   85   67   81   42   63    5   81   50
   29   60   39   85   93   83   25  100   64   85
   11   42   72   67   71   59   78   71   26   52
   79   36   73   50   84   97   67   24    5   22
   41   11   74   74   68   20   46   83   63   25
   29   77   20   18   62   62   85   72    2   30
   60   85   47   47   86   58   25   76   17   21
   30   64    7   77   75   98   15    8   22   68
   59   49   23   21   77   29   39   95   72    8
