   13   72   92   21   97    4   87   37   29   28
   75   36   92   46   66   57   25    9   55   74
   37   19   74   84   59   42   54   53   49   61
   43   90   83   54   46   20   64   29   35    3
   41   54   73   67    2   84    2   95   48   70
   85   91   73   88   77   69   43   91   64   36
   16   89    6   62   64   15   93   37   69   41
    9   81   95    2   85   60   64   10   52   98
   59   93   91   60   89   52   76   29   93   98
   44   13   13   21   46   86   91   77   54   83
   38    7   18    8   86   47   24   61   61    3
   74   52   83   22   48   81    7   97   43   52
   41   37   56   14   57   60   31    9   80   86
   73   41    9   64   49   43   40   60   34   48
   27   19   23   98   87   72   82   99   89   15
   55   89   62   94    9   97   14   11   85   72
   13   43   58   68   76   83   10   43   37   78
   83   35   89   75    4   67   88   57   99   57
   77   48   35   65   37   70    6    1   57  100
   76   35   71   44   69   57   45   37   41   40
   90   13   95   25   95   54   63   53   26   43
    4   67   97    7   83   28    5   18   93   38
   31   67   57    2    5   45   53   20   74   81
   19   82   15   70   49   66    9   81   62    8
   24   44   56   73   63    5   47   57   39  100
   92   80   18   82   91   28  100   58   87   38
   13   39   11   48   43   79   34   58   91   15
   49   90   82   98    9   91   46   72   52    5
   42   65   40   88   48   60   47   33   35   91
   63   46   40   68   90   54   46   97   50   10
   97   56   90   89   97   67   33   93   37   84
   25   59   27   37   65   68   96   78   15   35
   35   84   80   20   94   99   50   94    9   43
   77   61   15   17   15   77   57   21   49    8
   98   27   26   84   33    3    2   34    5   98
   37   68    7   48   80    8   38   24   81   18
   88   67   98   86   17   13   59  100   69   21
   21   27   28   24  100   32   97   97   73   97
   73   44   29   76   77   33   45    6    6   24
   82   46   26   16   27   23   92   29   87   80
   78   63   44   69   78   32   85   27   31    2
   72   53   58   35    1   57   25    9   72   35
   89    7   90   24   72   17   30   35   10   24
    9   41   95   11   44   64   98   77   60   32
   54   61   92    6   30   15   19   89   92   22
   29    1   27   63   64   10   37   52   91   91
   56   42   63   45   73   17   23   80   55   95
    6   32   10   16   57   36   64   49   78   12
   50   62   83   34   36   30   60   56   10   75
   88   33   98   52   96   98    3   20   34   11
   97   57   17   42   68   89   70  100   67   12
    3   11    2   70   48   69   47   64   74   12
   10   47   99   15   24   86   81   32   90   78
   57   90   44   59   80   99   56   97   40   32
    9   84    8   46   84   82   70   86   22   24
   74   84    2   65   22   71    7   14    9   48
   17   73   47   90   60   46    3   11   89   64
   75   22   13   10   63    9    1   74   74   89
   24   58   97   16    1   83   34   11    9   66
   20   70   81   27   89   98   17   45    6   50
   71    6   87   93   71   46   23    7   53   66
   91   30   85   75   43   22   28   50   14   46
   39   94   22   46    9    2   15   90   79   28
   10   51   96   31   76   73   71   22    1   37
   71   34   71   90   13   38   74   80    6   38
   77   32   62   13   92   19   58   83   41   18
   30    4   10    7   25   39   73   38   77   12
  100   31   20   62   52   80   52   12   16   98
   28   70   98   10   68   15   57   70   96   59
   51   58   82   16   55    9   60   58   63   69
   45   92    4   80   67   93   15   84   82   24
   68   93   42   64   74   50   23   37   17   39
   50   52   64   10   63   37   95   46   93   19
   70   80   31   65   81    9   29   73   20   89
   15   82    6   57   63    3    1   42   97   46
   52   33    8   19   53   67   85   10  100   42
   95   64   50   93   75   47   12   49   17   44
    2   74   40   15   99   18   15   78   47    5
   24    7   51   93   75  100   22   24   60   28
   33   52   91   52   39   59    1   31   68   73
   64   63   59   36    7   50   17   91   31   75
   47   75   70   91    1   90   27   78   51   81
   84   46   47    5   29   42   72   10   25   80
    9   89   21   99   41   64   61   80   15    1
   95    4   42   68   65   30   75   33   35   91
   16   54    9   32    1   93   19   83    6   50
   27   19   95   81    5   38   53   19   82   56
   90   12   38   98   76   80    7   61   43   86
   76   62   88   47   92   35   79    7   28   15
    5   52   47   19   27   60   31   65   86   36
   90   82   68   75   41   41   57   55    6    3
   43   25    9   22   40  100   47   30   41   44
   38   90   77   70   81   96   52   71    8   64
   70   63   34   31   68   79    3   65   16   82
   45  100   34   89   14    4   72   50   51   37
   24   76   61   44   53   14    1   71   54   61
   88   87   59   92   92   99   54   15    9   86
   23   72   59   73    9   19   65   89   40   59
   61   53   23   50   30    5   74   50   39   59
   98   31    2   41   26   43   49   92    6   20
